2.08E+02
2.17E+02
2.23E+02
2.27E+02
2.23E+02
2.21E+02
2.13E+02
2.08E+02
2.06E+02
2.05E+02
2.10E+02
2.16E+02
2.19E+02
2.20E+02
2.19E+02
2.18E+02
2.14E+02
2.14E+02
2.07E+02
2.09E+02
2.13E+02
2.21E+02
2.23E+02
2.22E+02
2.20E+02
2.17E+02
2.09E+02
2.08E+02
2.04E+02
2.09E+02
2.18E+02
2.17E+02
2.21E+02
2.23E+02
2.21E+02
2.16E+02
2.09E+02
2.07E+02
2.06E+02
2.09E+02
2.15E+02
2.18E+02
2.21E+02
2.23E+02
2.16E+02
2.13E+02
2.09E+02
2.05E+02
2.06E+02
2.10E+02
2.13E+02
2.18E+02
2.21E+02
2.23E+02
2.14E+02
2.08E+02
2.03E+02
2.10E+02
2.07E+02
2.10E+02
2.16E+02
2.16E+02
2.18E+02
2.16E+02
2.21E+02
2.14E+02
2.10E+02
2.06E+02
2.06E+02
2.08E+02
2.14E+02
2.16E+02
2.20E+02
2.22E+02
2.18E+02
2.14E+02
2.06E+02
2.07E+02
2.08E+02
2.13E+02
2.19E+02
2.22E+02
2.24E+02
2.20E+02
2.17E+02
2.11E+02
2.08E+02
2.05E+02
2.07E+02
2.10E+02
2.16E+02
2.17E+02
2.22E+02
2.12E+02
2.22E+02
2.12E+02
2.04E+02
2.05E+02
2.08E+02
2.10E+02
2.13E+02
2.18E+02
2.23E+02
2.13E+02
2.08E+02
2.04E+02
2.13E+02
2.07E+02
2.08E+02
2.11E+02
2.17E+02
2.20E+02
2.18E+02
2.13E+02
2.08E+02
2.00E+02
1.97E+02
2.09E+02
2.14E+02
2.15E+02
2.15E+02
2.23E+02
2.20E+02
2.14E+02
2.11E+02
2.06E+02
2.03E+02
2.02E+02
2.05E+02
2.08E+02
2.16E+02
2.19E+02
2.20E+02
2.15E+02
2.13E+02
2.06E+02
2.03E+02
2.01E+02
2.06E+02
2.09E+02
2.15E+02
2.17E+02
2.17E+02
2.12E+02
2.07E+02
2.00E+02
1.96E+02
1.99E+02
2.11E+02
2.09E+02
2.09E+02
2.13E+02
2.15E+02
2.22E+02
2.06E+02
2.04E+02
1.99E+02
1.98E+02
2.05E+02
2.15E+02
2.23E+02
2.21E+02
2.18E+02
2.13E+02
2.05E+02
2.02E+02
1.98E+02
2.05E+02
2.09E+02
2.13E+02
2.17E+02
2.16E+02
2.13E+02
2.08E+02
2.06E+02
2.05E+02
2.01E+02
2.06E+02
2.10E+02
2.13E+02
2.14E+02
2.15E+02
2.11E+02
2.09E+02
2.03E+02
2.11E+02
2.10E+02
2.12E+02
2.14E+02
2.15E+02
2.18E+02
2.19E+02
2.11E+02
2.03E+02
2.17E+02
2.11E+02
2.02E+02
2.02E+02
2.06E+02
2.23E+02
2.23E+02
2.20E+02
2.16E+02
2.13E+02
2.07E+02
2.08E+02
1.96E+02
2.03E+02
2.14E+02
2.22E+02
2.22E+02
2.23E+02
2.19E+02
2.14E+02
2.07E+02
2.02E+02
2.04E+02
2.10E+02
2.10E+02
2.13E+02
2.17E+02
2.13E+02
2.21E+02
2.09E+02
2.03E+02
2.09E+02
1.99E+02
2.02E+02
1.99E+02
2.44E+02
2.45E+02
2.25E+02
2.14E+02
2.07E+02
2.17E+02
1.92E+02
1.92E+02
2.15E+02
2.25E+02
2.27E+02
2.28E+02
2.17E+02
2.14E+02
2.46E+02
1.97E+02
1.94E+02
2.09E+02
2.53E+02
2.07E+02
1.97E+02
2.08E+02
2.33E+02
2.38E+02
2.06E+02
2.06E+02
2.08E+02
2.19E+02
2.18E+02
1.74E+02
2.41E+02
3.19E+02
3.14E+02
2.55E+02
1.76E+02
1.95E+02
1.64E+02
1.76E+02
1.68E+02
1.91E+02
1.72E+02
2.03E+02
2.27E+02
2.08E+02
2.14E+02
2.56E+02
1.92E+02
2.01E+02
2.07E+02
1.66E+02
1.89E+02
2.50E+02
1.90E+02
2.15E+02
2.18E+02
1.93E+02
2.43E+02
1.60E+02
1.02E+02
1.95E+02
2.83E+02
2.85E+02
2.81E+02
2.71E+02
2.43E+02
2.33E+02
1.98E+02
1.90E+02
2.36E+02
2.36E+02
2.32E+02
2.39E+02
2.28E+02
2.01E+02
2.16E+02
2.02E+02
2.04E+02
2.52E+02
2.45E+02
2.06E+02
2.16E+02
2.17E+02
2.12E+02
2.07E+02
1.95E+02
1.94E+02
1.90E+02
2.02E+02
2.08E+02
2.17E+02
2.20E+02
2.21E+02
2.14E+02
2.21E+02
1.95E+02
1.94E+02
1.99E+02
2.05E+02
2.20E+02
2.23E+02
2.22E+02
2.21E+02
2.14E+02
2.10E+02
2.02E+02
2.05E+02
2.06E+02
2.09E+02
2.14E+02
2.20E+02
2.19E+02
2.16E+02
2.12E+02
2.08E+02
2.04E+02
2.06E+02
2.10E+02
2.14E+02
2.16E+02
2.21E+02
2.19E+02
2.14E+02
2.11E+02
2.08E+02
2.08E+02
2.06E+02
2.10E+02
2.12E+02
2.17E+02
2.18E+02
2.17E+02
2.21E+02
2.10E+02
2.07E+02
2.06E+02
2.07E+02
2.09E+02
2.13E+02
2.18E+02
2.17E+02
2.14E+02
2.10E+02
2.09E+02
2.02E+02
2.05E+02
2.06E+02
2.06E+02
2.09E+02
2.13E+02
2.18E+02
2.19E+02
2.17E+02
2.15E+02
2.06E+02
2.07E+02
2.09E+02
2.02E+02
2.08E+02
2.20E+02
2.22E+02
2.23E+02
2.12E+02
2.05E+02
2.07E+02
2.02E+02
2.09E+02
2.14E+02
2.15E+02
2.18E+02
2.19E+02
2.18E+02
2.12E+02
2.07E+02
2.04E+02
2.06E+02
2.05E+02
2.11E+02
2.14E+02
2.14E+02
2.16E+02
2.11E+02
2.16E+02
2.08E+02
2.06E+02
2.05E+02
2.14E+02
2.12E+02
2.17E+02
2.18E+02
2.23E+02
2.11E+02
2.08E+02
2.17E+02
2.13E+02
2.04E+02
2.03E+02
2.08E+02
2.12E+02
2.12E+02
2.19E+02
2.16E+02
2.20E+02
2.19E+02
2.08E+02
2.05E+02
2.09E+02
2.14E+02
2.21E+02
2.18E+02
2.18E+02
2.13E+02
2.09E+02
2.07E+02
2.04E+02
2.08E+02
2.11E+02
2.12E+02
2.16E+02
2.17E+02
2.19E+02
2.14E+02
2.10E+02
2.05E+02
2.04E+02
2.08E+02
2.05E+02
2.05E+02
2.13E+02
2.35E+02
2.22E+02
2.11E+02
2.07E+02
2.11E+02
2.04E+02
2.07E+02
2.14E+02
2.11E+02
2.11E+02
2.09E+02
2.18E+02
2.14E+02
2.21E+02
2.10E+02
2.04E+02
2.06E+02
2.11E+02
2.17E+02
2.20E+02
2.17E+02
2.12E+02
2.15E+02
2.11E+02
2.07E+02
2.05E+02
2.09E+02
2.11E+02
2.15E+02
2.18E+02
2.18E+02
2.16E+02
2.10E+02
2.06E+02
2.03E+02
2.06E+02
2.07E+02
2.12E+02
2.17E+02
2.20E+02
2.21E+02
2.13E+02
2.13E+02
2.05E+02
2.00E+02
1.96E+02
2.09E+02
2.11E+02
2.21E+02
2.21E+02
2.19E+02
2.11E+02
2.04E+02
2.11E+02
2.12E+02
2.06E+02
2.06E+02
2.13E+02
2.17E+02
2.20E+02
2.18E+02
2.15E+02
2.07E+02
2.06E+02
2.01E+02
2.03E+02
2.04E+02
2.17E+02
2.20E+02
2.17E+02
2.16E+02
2.04E+02
2.04E+02
2.15E+02
2.07E+02
2.03E+02
2.08E+02
2.14E+02
2.16E+02
2.18E+02
2.15E+02
2.13E+02
2.08E+02
2.06E+02
2.02E+02
2.03E+02
2.10E+02
2.13E+02
2.15E+02
2.16E+02
2.14E+02
2.10E+02
2.05E+02
2.01E+02
2.00E+02
2.05E+02
2.13E+02
2.12E+02
2.15E+02
2.15E+02
2.11E+02
2.02E+02
2.13E+02
2.02E+02
2.00E+02
2.06E+02
2.18E+02
2.10E+02
2.15E+02
2.16E+02
2.16E+02
2.15E+02
2.06E+02
1.97E+02
1.93E+02
1.95E+02
2.14E+02
2.19E+02
2.19E+02
2.20E+02
2.13E+02
2.09E+02
2.05E+02
2.04E+02
2.02E+02
2.06E+02
2.08E+02
2.12E+02
2.17E+02
2.12E+02
2.07E+02
2.11E+02
2.11E+02
2.05E+02
2.02E+02
2.07E+02
2.11E+02
2.15E+02
2.17E+02
2.22E+02
2.16E+02
2.09E+02
2.02E+02
2.04E+02
2.01E+02
2.01E+02
2.05E+02
2.10E+02
2.11E+02
2.16E+02
2.15E+02
2.09E+02
2.06E+02
2.00E+02
2.03E+02
2.04E+02
2.10E+02
2.15E+02
2.19E+02
2.14E+02
2.13E+02
2.07E+02
2.01E+02
2.00E+02
2.03E+02
2.05E+02
2.12E+02
2.13E+02
2.15E+02
2.12E+02
2.10E+02
2.10E+02
2.05E+02
2.08E+02
2.09E+02
2.11E+02
2.11E+02
2.13E+02
2.13E+02
2.12E+02
2.10E+02
2.04E+02
1.99E+02
2.00E+02
2.02E+02
2.16E+02
2.14E+02
2.17E+02
2.17E+02
2.12E+02
2.12E+02
2.06E+02
2.02E+02
2.05E+02
2.15E+02
2.21E+02
2.15E+02
2.05E+02
2.15E+02
2.18E+02
2.17E+02
2.20E+02
2.19E+02
2.32E+02
2.06E+02
2.10E+02
2.13E+02
2.07E+02
2.09E+02
1.94E+02
2.13E+02
2.05E+02
2.15E+02
2.16E+02
2.22E+02
2.20E+02
2.08E+02
2.17E+02
2.36E+02
2.28E+02
2.09E+02
2.01E+02
2.08E+02
2.37E+02
2.43E+02
2.20E+02
2.08E+02
2.14E+02
2.09E+02
2.12E+02
2.11E+02
2.36E+02
2.59E+02
2.34E+02
1.92E+02
2.12E+02
2.52E+02
2.96E+02
2.55E+02
1.58E+02
1.91E+02
2.18E+02
2.49E+02
2.24E+02
2.45E+02
1.88E+02
1.91E+02
2.22E+02
2.47E+02
2.12E+02
2.17E+02
1.97E+02
1.96E+02
1.59E+02
2.12E+02
2.45E+02
2.45E+02
1.92E+02
2.42E+02
2.26E+02
1.92E+02
1.87E+02
1.74E+02
2.15E+02
2.39E+02
2.69E+02
2.38E+02
1.67E+02
2.25E+02
1.69E+02
1.72E+02
2.14E+02
1.98E+02
1.76E+02
1.92E+02
2.06E+02
2.18E+02
1.97E+02
2.10E+02
2.04E+02
2.01E+02
1.94E+02
1.98E+02
1.81E+02
1.90E+02
2.21E+02
2.07E+02
1.98E+02
2.07E+02
2.03E+02
1.98E+02
1.90E+02
1.92E+02
2.02E+02
2.07E+02
2.01E+02
1.98E+02
2.15E+02
2.07E+02
1.99E+02
2.13E+02
2.06E+02
2.12E+02
2.05E+02
2.08E+02
2.06E+02
2.14E+02
2.15E+02
2.09E+02
2.03E+02
2.02E+02
2.00E+02
2.00E+02
2.05E+02
2.11E+02
2.16E+02
2.16E+02
2.16E+02
2.09E+02
2.08E+02
2.01E+02
1.97E+02
2.04E+02
2.10E+02
2.11E+02
2.18E+02
2.15E+02
2.14E+02
2.08E+02
2.04E+02
2.07E+02
2.02E+02
2.04E+02
2.11E+02
2.12E+02
2.19E+02
2.17E+02
2.18E+02
2.12E+02
2.05E+02
2.04E+02
1.96E+02
1.91E+02
2.18E+02
2.22E+02
2.15E+02
2.06E+02
2.05E+02
2.07E+02
2.09E+02
2.15E+02
2.13E+02
2.11E+02
2.16E+02
2.19E+02
2.20E+02
2.18E+02
2.12E+02
2.08E+02
2.06E+02
2.06E+02
2.05E+02
2.06E+02
2.11E+02
2.14E+02
2.17E+02
2.18E+02
2.17E+02
2.11E+02
2.05E+02
2.04E+02
2.03E+02
2.09E+02
2.11E+02
2.19E+02
2.13E+02
2.18E+02
2.15E+02
2.11E+02
2.04E+02
2.06E+02
2.08E+02
2.13E+02
2.13E+02
2.18E+02
2.18E+02
2.18E+02
2.14E+02
2.13E+02
2.04E+02
2.01E+02
2.01E+02
2.14E+02
2.14E+02
2.14E+02
2.20E+02
2.18E+02
2.09E+02
2.04E+02
2.04E+02
1.95E+02
2.08E+02
2.09E+02
2.26E+02
2.23E+02
2.23E+02
2.17E+02
2.13E+02
2.09E+02
2.06E+02
2.07E+02
2.08E+02
2.10E+02
2.12E+02
2.18E+02
2.18E+02
2.13E+02
2.09E+02
2.07E+02
2.05E+02
2.04E+02
2.07E+02
2.12E+02
2.18E+02
2.20E+02
2.21E+02
2.17E+02
2.13E+02
2.10E+02
2.07E+02
2.07E+02
2.08E+02
2.11E+02
2.17E+02
2.17E+02
2.18E+02
2.15E+02
2.10E+02
2.08E+02
2.05E+02
2.07E+02
2.08E+02
2.06E+02
2.08E+02
2.25E+02
2.22E+02
2.12E+02
2.11E+02
2.03E+02
2.05E+02
2.08E+02
2.05E+02
2.04E+02
2.15E+02
2.23E+02
2.30E+02
2.20E+02
2.14E+02
2.06E+02
2.05E+02
2.06E+02
2.09E+02
2.14E+02
2.16E+02
2.20E+02
2.19E+02
2.13E+02
2.09E+02
2.05E+02
2.04E+02
2.05E+02
2.11E+02
2.16E+02
2.17E+02
2.20E+02
2.16E+02
2.10E+02
2.09E+02
2.04E+02
2.03E+02
2.09E+02
2.11E+02
2.16E+02
2.18E+02
2.20E+02
2.15E+02
2.11E+02
2.07E+02
2.06E+02
1.99E+02
2.02E+02
2.11E+02
2.17E+02
2.19E+02
2.19E+02
2.15E+02
2.15E+02
2.05E+02
2.08E+02
2.05E+02
2.05E+02
2.10E+02
2.19E+02
2.25E+02
2.19E+02
2.15E+02
2.13E+02
2.08E+02
2.06E+02
2.05E+02
2.06E+02
2.11E+02
2.13E+02
2.23E+02
2.18E+02
2.16E+02
2.12E+02
2.08E+02
2.03E+02
2.02E+02
2.06E+02
2.14E+02
2.21E+02
2.22E+02
2.17E+02
2.06E+02
2.04E+02
2.09E+02
2.05E+02
2.03E+02
2.06E+02
2.12E+02
2.16E+02
2.16E+02
2.12E+02
2.17E+02
2.11E+02
2.07E+02
2.01E+02
2.04E+02
2.08E+02
2.14E+02
2.17E+02
2.26E+02
2.21E+02
2.14E+02
2.02E+02
2.01E+02
2.00E+02
2.06E+02
2.10E+02
2.11E+02
2.16E+02
2.17E+02
2.15E+02
2.09E+02
2.04E+02
1.99E+02
2.02E+02
2.01E+02
2.08E+02
2.14E+02
2.17E+02
2.18E+02
2.11E+02
2.10E+02
2.04E+02
2.07E+02
2.03E+02
2.03E+02
2.06E+02
2.15E+02
2.21E+02
2.21E+02
2.16E+02
2.13E+02
2.05E+02
2.01E+02
1.98E+02
2.06E+02
2.07E+02
2.19E+02
2.21E+02
2.12E+02
2.13E+02
2.15E+02
2.05E+02
2.02E+02
2.02E+02
2.10E+02
2.12E+02
2.17E+02
2.19E+02
2.14E+02
2.09E+02
2.10E+02
2.00E+02
2.01E+02
2.04E+02
2.07E+02
2.13E+02
2.17E+02
2.25E+02
2.21E+02
2.09E+02
2.06E+02
2.05E+02
1.97E+02
1.99E+02
2.02E+02
2.13E+02
2.16E+02
2.17E+02
2.19E+02
2.15E+02
2.11E+02
2.12E+02
2.02E+02
2.06E+02
2.11E+02
2.10E+02
2.20E+02
2.25E+02
2.26E+02
2.20E+02
2.08E+02
2.04E+02
2.05E+02
1.99E+02
1.97E+02
2.11E+02
2.18E+02
2.30E+02
2.14E+02
2.12E+02
2.08E+02
2.00E+02
2.10E+02
2.03E+02
2.16E+02
2.12E+02
2.21E+02
2.31E+02
2.35E+02
2.12E+02
1.99E+02
1.95E+02
2.03E+02
2.11E+02
2.28E+02
2.36E+02
2.32E+02
2.15E+02
2.05E+02
2.04E+02
2.13E+02
2.15E+02
1.95E+02
2.30E+02
2.34E+02
2.04E+02
2.04E+02
2.26E+02
2.17E+02
2.14E+02
2.11E+02
2.05E+02
2.37E+02
2.17E+02
2.28E+02
2.34E+02
2.49E+02
2.52E+02
2.15E+02
2.01E+02
2.00E+02
1.80E+02
2.06E+02
2.58E+02
2.44E+02
2.20E+02
2.19E+02
2.38E+02
2.35E+02
2.27E+02
2.19E+02
1.98E+02
1.86E+02
1.90E+02
2.38E+02
2.01E+02
2.06E+02
2.35E+02
2.34E+02
2.19E+02
2.18E+02
1.88E+02
1.89E+02
2.02E+02
2.25E+02
2.32E+02
1.95E+02
1.92E+02
2.00E+02
2.08E+02
1.98E+02
1.85E+02
2.10E+02
2.54E+02
2.12E+02
2.02E+02
1.98E+02
1.79E+02
2.33E+02
2.41E+02
2.24E+02
2.21E+02
1.96E+02
1.88E+02
1.88E+02
2.09E+02
2.05E+02
1.89E+02
2.04E+02
1.95E+02
1.91E+02
1.96E+02
2.01E+02
2.03E+02
2.04E+02
2.13E+02
2.09E+02
2.07E+02
2.00E+02
1.96E+02
1.94E+02
1.96E+02
2.09E+02
2.15E+02
2.07E+02
2.06E+02
2.07E+02
2.08E+02
2.07E+02
2.01E+02
2.03E+02
2.05E+02
2.11E+02
2.05E+02
2.15E+02
2.16E+02
2.13E+02
2.12E+02
2.09E+02
2.06E+02
2.03E+02
2.01E+02
2.07E+02
2.07E+02
2.08E+02
2.20E+02
2.14E+02
2.10E+02
2.05E+02
2.01E+02
2.06E+02
2.04E+02
2.10E+02
2.13E+02
2.13E+02
2.16E+02
2.15E+02
2.10E+02
2.05E+02
1.93E+02
1.91E+02
2.24E+02
2.12E+02
2.15E+02
2.17E+02
2.18E+02
2.17E+02
2.12E+02
2.09E+02
2.03E+02
2.05E+02
2.07E+02
2.12E+02
2.14E+02
2.14E+02
2.18E+02
2.14E+02
2.08E+02
2.14E+02
2.07E+02
2.09E+02
2.10E+02
2.14E+02
2.13E+02
2.19E+02
2.20E+02
2.15E+02
2.09E+02
2.02E+02
2.04E+02
2.08E+02
2.13E+02
2.11E+02
2.18E+02
2.20E+02
2.18E+02
2.13E+02
2.08E+02
2.16E+02
2.08E+02
2.04E+02
2.10E+02
2.14E+02
2.18E+02
2.19E+02
2.19E+02
2.17E+02
2.13E+02
2.07E+02
2.07E+02
2.07E+02
2.09E+02
2.14E+02
2.19E+02
2.20E+02
2.16E+02
2.11E+02
2.12E+02
2.04E+02
2.08E+02
2.10E+02
2.11E+02
2.15E+02
2.13E+02
2.25E+02
2.23E+02
2.18E+02
2.13E+02
2.08E+02
2.08E+02
2.09E+02
2.09E+02
2.12E+02
2.16E+02
2.23E+02
2.12E+02
2.18E+02
2.15E+02
2.11E+02
2.10E+02
2.07E+02
2.13E+02
2.16E+02
2.15E+02
2.22E+02
2.18E+02
2.12E+02
2.10E+02
2.04E+02
2.03E+02
2.12E+02
2.12E+02
2.13E+02
2.18E+02
2.15E+02
2.24E+02
2.14E+02
2.09E+02
2.05E+02
2.06E+02
2.04E+02
2.06E+02
2.09E+02
2.14E+02
2.22E+02
2.20E+02
2.17E+02
2.13E+02
2.07E+02
2.07E+02
2.05E+02
2.14E+02
2.18E+02
2.17E+02
2.15E+02
2.14E+02
2.09E+02
2.08E+02
2.06E+02
2.04E+02
2.07E+02
2.10E+02
2.13E+02
2.24E+02
2.20E+02
2.13E+02
2.09E+02
2.08E+02
2.05E+02
2.11E+02
2.10E+02
2.15E+02
2.15E+02
2.16E+02
2.15E+02
2.16E+02
2.12E+02
2.11E+02
2.06E+02
2.07E+02
2.10E+02
2.15E+02
2.18E+02
2.19E+02
2.15E+02
2.13E+02
2.12E+02
2.07E+02
2.06E+02
2.08E+02
2.12E+02
2.15E+02
2.13E+02
2.12E+02
2.07E+02
2.23E+02
2.18E+02
2.04E+02
1.97E+02
2.04E+02
2.13E+02
2.19E+02
2.21E+02
2.20E+02
2.20E+02
2.10E+02
2.13E+02
2.09E+02
2.01E+02
2.09E+02
2.12E+02
2.13E+02
2.17E+02
2.28E+02
2.19E+02
2.11E+02
2.09E+02
2.05E+02
2.04E+02
2.09E+02
2.12E+02
2.20E+02
2.18E+02
2.18E+02
2.15E+02
2.11E+02
2.09E+02
2.04E+02
2.01E+02
2.05E+02
2.06E+02
2.15E+02
2.28E+02
2.24E+02
2.16E+02
2.06E+02
2.04E+02
2.13E+02
1.97E+02
1.96E+02
2.13E+02
2.20E+02
2.21E+02
2.18E+02
2.21E+02
2.10E+02
2.02E+02
1.96E+02
1.96E+02
2.16E+02
2.32E+02
2.32E+02
2.10E+02
2.09E+02
2.11E+02
2.09E+02
2.05E+02
2.04E+02
1.99E+02
2.10E+02
2.13E+02
2.09E+02
2.15E+02
2.22E+02
2.10E+02
2.05E+02
2.01E+02
2.03E+02
2.05E+02
2.06E+02
2.17E+02
2.17E+02
2.19E+02
2.11E+02
2.12E+02
2.03E+02
2.01E+02
2.03E+02
2.02E+02
2.09E+02
2.08E+02
2.13E+02
2.16E+02
2.14E+02
2.09E+02
2.08E+02
2.06E+02
2.14E+02
2.17E+02
2.11E+02
2.09E+02
2.15E+02
2.09E+02
2.14E+02
2.11E+02
2.03E+02
2.02E+02
2.02E+02
2.08E+02
2.11E+02
2.13E+02
2.14E+02
2.17E+02
2.10E+02
2.09E+02
2.07E+02
1.98E+02
2.08E+02
2.21E+02
2.29E+02
2.21E+02
2.11E+02
2.08E+02
2.15E+02
2.12E+02
2.05E+02
1.96E+02
1.96E+02
2.14E+02
2.22E+02
2.21E+02
2.21E+02
2.08E+02
2.12E+02
2.19E+02
2.09E+02
2.15E+02
2.04E+02
2.16E+02
2.09E+02
2.24E+02
2.34E+02
2.21E+02
2.15E+02
1.94E+02
2.04E+02
2.02E+02
1.93E+02
1.97E+02
2.18E+02
2.23E+02
2.24E+02
2.26E+02
2.08E+02
2.11E+02
2.26E+02
2.16E+02
1.94E+02
2.01E+02
2.15E+02
2.54E+02
2.18E+02
2.35E+02
2.10E+02
1.97E+02
2.36E+02
2.33E+02
1.94E+02
2.10E+02
2.13E+02
2.52E+02
2.82E+02
2.31E+02
1.91E+02
2.84E+02
2.68E+02
1.68E+02
1.95E+02
1.94E+02
2.04E+02
2.14E+02
2.56E+02
2.33E+02
2.44E+02
2.07E+02
1.99E+02
2.25E+02
2.33E+02
2.44E+02
1.95E+02
1.90E+02
2.11E+02
2.15E+02
2.30E+02
2.39E+02
1.91E+02
1.49E+02
2.01E+02
2.31E+02
2.42E+02
2.07E+02
2.19E+02
2.85E+02
2.58E+02
2.34E+02
1.78E+02
1.55E+02
1.86E+02
1.93E+02
2.11E+02
2.24E+02
2.24E+02
2.12E+02
2.50E+02
1.77E+02
1.66E+02
1.93E+02
2.04E+02
2.29E+02
1.86E+02
2.38E+02
2.08E+02
2.08E+02
1.92E+02
1.90E+02
1.90E+02
2.02E+02
2.12E+02
2.06E+02
2.13E+02
2.18E+02
2.17E+02
2.00E+02
1.99E+02
2.08E+02
1.90E+02
1.83E+02
2.16E+02
2.39E+02
2.23E+02
2.07E+02
2.00E+02
2.05E+02
2.14E+02
2.32E+02
2.36E+02
1.83E+02
1.91E+02
1.88E+02
2.16E+02
2.05E+02
2.10E+02
2.24E+02
1.94E+02
1.97E+02
1.98E+02
2.01E+02
2.10E+02
2.04E+02
2.11E+02
2.09E+02
2.15E+02
2.10E+02
2.06E+02
2.02E+02
1.94E+02
2.01E+02
2.02E+02
2.08E+02
2.16E+02
2.18E+02
2.19E+02
2.10E+02
1.99E+02
2.01E+02
2.05E+02
2.03E+02
1.99E+02
2.08E+02
2.14E+02
2.12E+02
2.11E+02
2.04E+02
2.06E+02
1.96E+02
2.04E+02
2.00E+02
2.01E+02
2.22E+02
2.15E+02
2.07E+02
2.09E+02
2.06E+02
2.04E+02
2.05E+02
2.03E+02
2.10E+02
2.15E+02
2.13E+02
2.18E+02
2.22E+02
2.11E+02
2.10E+02
2.04E+02
2.05E+02
2.03E+02
2.04E+02
2.16E+02
2.20E+02
2.18E+02
2.14E+02
2.09E+02
2.09E+02
2.06E+02
2.06E+02
2.11E+02
2.09E+02
2.13E+02
2.18E+02
2.17E+02
2.15E+02
2.12E+02
2.09E+02
2.06E+02
2.05E+02
2.04E+02
2.11E+02
2.14E+02
2.18E+02
2.22E+02
2.15E+02
2.05E+02
2.07E+02
2.11E+02
2.10E+02
2.08E+02
2.10E+02
2.18E+02
2.18E+02
2.18E+02
2.17E+02
2.16E+02
2.08E+02
2.07E+02
2.05E+02
2.03E+02
2.10E+02
2.19E+02
2.20E+02
2.17E+02
2.18E+02
2.08E+02
1.99E+02
2.12E+02
2.14E+02
2.12E+02
2.18E+02
2.19E+02
2.19E+02
2.20E+02
2.16E+02
2.13E+02
2.08E+02
2.09E+02
2.07E+02
2.10E+02
2.17E+02
2.18E+02
2.18E+02
2.21E+02
2.12E+02
2.08E+02
2.10E+02
2.06E+02
2.07E+02
2.16E+02
2.21E+02
2.16E+02
2.17E+02
2.11E+02
2.15E+02
2.12E+02
2.09E+02
2.00E+02
2.02E+02
2.16E+02
2.14E+02
2.23E+02
2.19E+02
2.14E+02
2.09E+02
2.11E+02
2.08E+02
2.08E+02
2.04E+02
2.08E+02
2.20E+02
2.22E+02
2.20E+02
2.15E+02
2.08E+02
2.18E+02
2.07E+02
2.12E+02
2.13E+02
2.11E+02
2.15E+02
2.16E+02
2.20E+02
2.16E+02
2.14E+02
2.09E+02
2.05E+02
2.04E+02
2.08E+02
2.12E+02
2.19E+02
2.17E+02
2.20E+02
2.13E+02
2.11E+02
2.05E+02
2.13E+02
2.08E+02
2.08E+02
2.15E+02
2.18E+02
2.16E+02
2.16E+02
2.18E+02
2.10E+02
2.15E+02
2.10E+02
2.08E+02
2.13E+02
2.18E+02
2.18E+02
2.15E+02
2.14E+02
2.09E+02
2.08E+02
2.09E+02
2.07E+02
2.02E+02
2.10E+02
2.15E+02
2.18E+02
2.17E+02
2.14E+02
2.14E+02
2.10E+02
2.06E+02
2.08E+02
2.06E+02
2.05E+02
2.17E+02
2.18E+02
2.20E+02
2.19E+02
2.14E+02
2.10E+02
2.05E+02
2.03E+02
2.05E+02
2.09E+02
2.11E+02
2.16E+02
2.18E+02
2.15E+02
2.11E+02
2.09E+02
2.05E+02
2.00E+02
2.11E+02
2.14E+02
2.15E+02
2.15E+02
2.15E+02
2.11E+02
2.13E+02
2.07E+02
1.98E+02
2.03E+02
2.16E+02
2.19E+02
2.19E+02
2.21E+02
2.19E+02
2.14E+02
2.10E+02
2.06E+02
2.02E+02
2.03E+02
2.08E+02
2.14E+02
2.16E+02
2.22E+02
2.19E+02
2.12E+02
2.09E+02
2.03E+02
2.02E+02
2.05E+02
2.06E+02
2.11E+02
2.17E+02
2.18E+02
2.20E+02
2.18E+02
2.15E+02
2.08E+02
2.05E+02
2.04E+02
2.04E+02
2.09E+02
2.18E+02
2.18E+02
2.21E+02
2.14E+02
2.06E+02
1.99E+02
2.03E+02
2.01E+02
2.09E+02
2.13E+02
2.26E+02
2.20E+02
2.21E+02
2.14E+02
2.06E+02
2.06E+02
2.06E+02
2.04E+02
2.07E+02
2.05E+02
2.23E+02
2.18E+02
2.19E+02
2.15E+02
2.11E+02
2.07E+02
2.02E+02
2.04E+02
2.06E+02
2.11E+02
2.12E+02
2.15E+02
2.16E+02
2.12E+02
2.08E+02
2.06E+02
2.03E+02
2.07E+02
2.12E+02
2.14E+02
2.15E+02
2.18E+02
2.17E+02
2.10E+02
2.03E+02
1.99E+02
2.10E+02
2.09E+02
2.11E+02
2.14E+02
2.15E+02
2.09E+02
2.06E+02
2.15E+02
2.04E+02
2.11E+02
2.08E+02
2.10E+02
2.15E+02
2.15E+02
2.18E+02
2.18E+02
2.14E+02
2.13E+02
2.06E+02
2.03E+02
2.05E+02
2.07E+02
2.07E+02
2.20E+02
2.18E+02
2.19E+02
2.15E+02
2.13E+02
2.05E+02
2.04E+02
2.04E+02
2.09E+02
2.16E+02
2.20E+02
2.18E+02
2.17E+02
2.12E+02
2.11E+02
2.10E+02
2.05E+02
2.02E+02
2.07E+02
2.11E+02
2.16E+02
2.19E+02
2.15E+02
2.06E+02
2.09E+02
2.17E+02
2.05E+02
2.08E+02
2.09E+02
2.16E+02
2.15E+02
2.18E+02
2.18E+02
2.12E+02
2.13E+02
2.08E+02
2.09E+02
2.05E+02
2.08E+02
2.16E+02
2.19E+02
2.18E+02
2.17E+02
2.11E+02
2.07E+02
2.09E+02
2.04E+02
2.08E+02
2.13E+02
2.16E+02
2.18E+02
2.17E+02
2.16E+02
2.10E+02
2.06E+02
2.11E+02
2.10E+02
2.04E+02
2.08E+02
2.12E+02
2.26E+02
2.22E+02
2.17E+02
2.12E+02
2.09E+02
2.08E+02
2.07E+02
2.08E+02
2.09E+02
2.16E+02
2.22E+02
2.22E+02
2.19E+02
2.07E+02
2.00E+02
2.12E+02
2.06E+02
2.10E+02
2.17E+02
2.20E+02
2.27E+02
2.20E+02
2.14E+02
2.08E+02
2.05E+02
2.10E+02
2.09E+02
2.06E+02
2.10E+02
2.20E+02
2.22E+02
2.19E+02
2.16E+02
2.11E+02
2.03E+02
1.96E+02
2.06E+02
2.07E+02
2.09E+02
2.20E+02
2.27E+02
2.20E+02
2.16E+02
2.11E+02
2.09E+02
2.07E+02
2.09E+02
2.10E+02
2.15E+02
2.16E+02
2.16E+02
2.13E+02
2.09E+02
2.04E+02
2.00E+02
2.10E+02
2.14E+02
2.07E+02
2.10E+02
2.24E+02
2.22E+02
2.21E+02
2.15E+02
2.13E+02
2.10E+02
2.05E+02
2.06E+02
2.07E+02
2.10E+02
2.17E+02
2.25E+02
2.16E+02
2.13E+02
2.10E+02
2.07E+02
2.07E+02
2.09E+02
2.10E+02
2.13E+02
2.19E+02
2.20E+02
2.21E+02
2.15E+02
2.08E+02
2.08E+02
2.06E+02
2.09E+02
2.11E+02
2.17E+02
2.24E+02
2.19E+02
2.12E+02
2.10E+02
2.13E+02
2.07E+02
2.08E+02
2.04E+02
2.10E+02
2.17E+02
2.24E+02
2.24E+02
2.16E+02
2.12E+02
2.07E+02
2.08E+02
2.00E+02
2.04E+02
2.16E+02
2.26E+02
2.14E+02
2.21E+02
2.21E+02
2.13E+02
2.11E+02
2.06E+02
2.08E+02
2.09E+02
2.09E+02
2.14E+02
2.23E+02
2.19E+02
2.12E+02
2.04E+02
2.15E+02
2.11E+02
2.06E+02
2.05E+02
2.24E+02
2.20E+02
2.26E+02
2.19E+02
2.17E+02
2.10E+02
2.08E+02
2.04E+02
2.05E+02
2.08E+02
2.23E+02
2.21E+02
2.20E+02
2.18E+02
2.17E+02
2.08E+02
2.08E+02
2.10E+02
2.09E+02
2.08E+02
2.07E+02
2.09E+02
2.22E+02
2.23E+02
2.22E+02
2.12E+02
2.08E+02
2.08E+02
2.11E+02
2.14E+02
2.13E+02
2.16E+02
2.22E+02
2.21E+02
2.12E+02
2.08E+02
2.11E+02
2.12E+02
2.11E+02
2.15E+02
2.18E+02
2.19E+02
2.18E+02
2.12E+02
2.13E+02
2.08E+02
2.08E+02
2.08E+02
2.16E+02
2.15E+02
2.19E+02
2.15E+02
2.13E+02
2.14E+02
2.09E+02
2.08E+02
2.04E+02
2.11E+02
2.09E+02
2.14E+02
2.19E+02
2.18E+02
2.18E+02
2.15E+02
2.07E+02
2.08E+02
2.10E+02
2.10E+02
2.11E+02
2.16E+02
2.18E+02
2.19E+02
2.14E+02
2.15E+02
2.05E+02
2.03E+02
2.12E+02
2.12E+02
2.11E+02
2.15E+02
2.15E+02
2.24E+02
2.17E+02
2.13E+02
2.07E+02
2.04E+02
2.00E+02
2.06E+02
2.08E+02
2.18E+02
2.19E+02
2.21E+02
2.14E+02
2.10E+02
2.04E+02
2.00E+02
1.96E+02
2.11E+02
2.15E+02
2.14E+02
2.23E+02
2.17E+02
2.11E+02
2.05E+02
2.10E+02
2.07E+02
2.06E+02
2.06E+02
2.15E+02
2.23E+02
2.20E+02
2.20E+02
2.14E+02
2.13E+02
2.01E+02
2.03E+02
2.09E+02
2.12E+02
2.10E+02
2.15E+02
2.14E+02
2.12E+02
2.15E+02
2.14E+02
2.11E+02
2.02E+02
1.99E+02
2.04E+02
2.18E+02
2.17E+02
2.17E+02
2.09E+02
2.11E+02
2.15E+02
2.11E+02
2.03E+02
2.03E+02
2.01E+02
2.12E+02
2.22E+02
2.22E+02
2.19E+02
2.10E+02
2.15E+02
2.06E+02
2.05E+02
2.06E+02
2.09E+02
2.15E+02
2.19E+02
2.20E+02
2.15E+02
2.04E+02
2.06E+02
2.06E+02
2.14E+02
2.08E+02
2.06E+02
2.10E+02
2.27E+02
2.24E+02
2.20E+02
2.14E+02
2.09E+02
2.01E+02
2.07E+02
2.06E+02
2.14E+02
2.19E+02
2.18E+02
2.16E+02
2.19E+02
2.08E+02
2.03E+02
2.09E+02
2.04E+02
2.05E+02
2.19E+02
2.23E+02
2.19E+02
2.16E+02
2.18E+02
2.14E+02
2.07E+02
1.99E+02
2.05E+02
2.09E+02
2.19E+02
2.14E+02
2.15E+02
2.24E+02
2.16E+02
2.14E+02
2.06E+02
2.04E+02
2.03E+02
2.02E+02
2.02E+02
2.18E+02
2.33E+02
2.23E+02
2.19E+02
2.15E+02
2.04E+02
2.01E+02
2.06E+02
1.92E+02
1.97E+02
2.31E+02
2.29E+02
2.23E+02
2.17E+02
2.13E+02
2.07E+02
2.05E+02
2.05E+02
2.11E+02
2.14E+02
2.21E+02
2.20E+02
2.19E+02
2.13E+02
2.07E+02
2.01E+02
1.95E+02
1.99E+02
2.20E+02
2.16E+02
2.23E+02
2.20E+02
2.18E+02
2.12E+02
2.09E+02
2.05E+02
2.02E+02
2.02E+02
2.16E+02
2.14E+02
2.10E+02
2.14E+02
2.18E+02
2.20E+02
2.15E+02
2.08E+02
2.07E+02
2.04E+02
2.09E+02
2.15E+02
2.21E+02
2.18E+02
2.19E+02
2.11E+02
2.05E+02
2.08E+02
2.04E+02
2.08E+02
2.10E+02
2.16E+02
2.18E+02
2.17E+02
2.10E+02
2.07E+02
2.11E+02
2.09E+02
2.02E+02
2.11E+02
2.11E+02
2.18E+02
2.20E+02
2.14E+02
2.10E+02
2.14E+02
2.08E+02
2.06E+02
2.03E+02
2.07E+02
2.12E+02
2.19E+02
2.18E+02
2.16E+02
2.17E+02
2.10E+02
2.00E+02
1.98E+02
2.08E+02
2.21E+02
2.16E+02
2.20E+02
2.18E+02
2.18E+02
2.20E+02
2.06E+02
1.98E+02
2.10E+02
2.14E+02
2.09E+02
2.24E+02
2.18E+02
2.24E+02
2.18E+02
2.12E+02
2.10E+02
2.04E+02
2.03E+02
2.05E+02
2.10E+02
2.15E+02
2.17E+02
2.19E+02
2.18E+02
2.16E+02
2.11E+02
2.04E+02
2.01E+02
2.11E+02
2.14E+02
2.16E+02
2.21E+02
2.19E+02
2.21E+02
2.13E+02
2.11E+02
2.07E+02
2.06E+02
2.12E+02
2.11E+02
2.13E+02
2.19E+02
2.19E+02
2.18E+02
2.12E+02
2.10E+02
2.07E+02
2.07E+02
2.10E+02
2.12E+02
2.17E+02
2.19E+02
2.18E+02
2.14E+02
2.11E+02
2.08E+02
2.05E+02
2.05E+02
2.10E+02
2.14E+02
2.20E+02
2.22E+02
2.18E+02
2.16E+02
2.11E+02
2.07E+02
2.10E+02
2.12E+02
2.12E+02
2.18E+02
2.19E+02
2.21E+02
2.20E+02
2.17E+02
2.13E+02
2.11E+02
2.05E+02
2.11E+02
2.12E+02
2.18E+02
2.18E+02
2.21E+02
2.21E+02
2.16E+02
2.14E+02
2.08E+02
2.11E+02
2.06E+02
2.10E+02
2.14E+02
2.20E+02
2.22E+02
2.19E+02
2.16E+02
2.10E+02
2.06E+02
2.06E+02
2.09E+02
2.15E+02
2.11E+02
2.15E+02
2.20E+02
2.21E+02
2.13E+02
2.10E+02
2.11E+02
2.06E+02
2.07E+02
2.11E+02
2.14E+02
2.19E+02
2.24E+02
2.16E+02
2.15E+02
2.08E+02
2.06E+02
2.04E+02
2.06E+02
2.14E+02
2.17E+02
2.16E+02
2.19E+02
2.13E+02
2.13E+02
2.09E+02
2.08E+02
2.05E+02
2.07E+02
2.06E+02
2.04E+02
2.02E+02
2.24E+02
2.15E+02
2.18E+02
2.06E+02
2.08E+02
2.05E+02
2.04E+02
2.14E+02
2.16E+02
2.18E+02
2.24E+02
2.17E+02
2.06E+02
2.01E+02
2.05E+02
2.11E+02
2.08E+02
2.07E+02
2.29E+02
2.29E+02
2.24E+02
2.02E+02
1.98E+02
1.97E+02
2.30E+02
2.13E+02
2.20E+02
2.09E+02
2.24E+02
2.29E+02
2.23E+02
2.16E+02
1.99E+02
2.29E+02
2.28E+02
2.01E+02
2.26E+02
2.42E+02
2.23E+02
2.11E+02
2.05E+02
2.12E+02
2.17E+02
2.28E+02
1.94E+02
1.91E+02
2.07E+02
1.83E+02
2.45E+02
2.73E+02
2.20E+02
2.73E+02
2.35E+02
1.67E+02
1.34E+02
2.81E+02
2.89E+02
1.99E+02
2.24E+02
2.55E+02
2.87E+02
2.65E+02
2.26E+02
9.00E+01
1.36E+02
1.94E+02
1.33E+02
1.16E+02
2.70E+02
2.29E+02
2.62E+02
2.97E+02
2.84E+02
2.43E+02
1.84E+02
1.27E+02
1.82E+02
2.14E+02
2.83E+02
2.54E+02
2.31E+02
1.60E+02
1.83E+02
2.23E+02
1.70E+02
1.71E+02
2.24E+02
1.83E+02
2.30E+02
2.93E+02
1.97E+02
1.92E+02
1.90E+02
1.99E+02
2.09E+02
2.02E+02
2.46E+02
2.08E+02
2.30E+02
2.43E+02
2.25E+02
1.84E+02
1.85E+02
1.79E+02
1.53E+02
1.66E+02
2.44E+02
2.01E+02
2.53E+02
2.06E+02
1.95E+02
1.97E+02
1.98E+02
2.31E+02
2.28E+02
2.08E+02
1.96E+02
2.05E+02
2.17E+02
2.07E+02
2.02E+02
2.10E+02
1.97E+02
1.97E+02
2.00E+02
2.05E+02
2.11E+02
2.14E+02
2.13E+02
2.14E+02
2.07E+02
2.02E+02
1.99E+02
2.02E+02
2.01E+02
2.07E+02
2.12E+02
2.16E+02
2.16E+02
2.15E+02
2.13E+02
2.07E+02
2.05E+02
2.01E+02
2.02E+02
2.09E+02
2.12E+02
2.14E+02
2.12E+02
2.12E+02
2.07E+02
2.04E+02
2.03E+02
2.04E+02
2.07E+02
2.10E+02
2.13E+02
2.17E+02
2.17E+02
2.13E+02
2.08E+02
2.06E+02
2.02E+02
2.03E+02
2.05E+02
2.12E+02
2.16E+02
2.17E+02
2.14E+02
2.13E+02
2.07E+02
2.06E+02
2.04E+02
2.06E+02
2.08E+02
2.11E+02
2.14E+02
2.17E+02
2.15E+02
2.12E+02
2.08E+02
2.06E+02
2.07E+02
2.04E+02
2.08E+02
2.16E+02
2.13E+02
2.16E+02
2.22E+02
2.13E+02
2.06E+02
2.08E+02
2.02E+02
1.92E+02
2.11E+02
2.30E+02
2.29E+02
2.24E+02
2.20E+02
2.17E+02
2.09E+02
2.08E+02
2.09E+02
2.08E+02
2.13E+02
2.18E+02
2.19E+02
2.21E+02
2.18E+02
2.15E+02
2.09E+02
2.08E+02
2.06E+02
2.11E+02
2.11E+02
2.15E+02
2.14E+02
2.20E+02
2.18E+02
2.15E+02
2.10E+02
2.07E+02
2.06E+02
2.09E+02
2.13E+02
2.14E+02
2.16E+02
2.20E+02
2.16E+02
2.16E+02
2.07E+02
2.00E+02
2.04E+02
2.06E+02
2.13E+02
2.09E+02
2.16E+02
2.22E+02
2.18E+02
2.10E+02
2.06E+02
2.06E+02
2.10E+02
2.10E+02
2.19E+02
2.19E+02
2.19E+02
2.19E+02
2.15E+02
2.07E+02
2.01E+02
2.00E+02
2.15E+02
2.13E+02
2.22E+02
2.21E+02
2.20E+02
2.16E+02
2.14E+02
2.12E+02
1.97E+02
2.03E+02
2.14E+02
2.15E+02
2.15E+02
2.22E+02
2.21E+02
2.20E+02
2.18E+02
2.10E+02
2.05E+02
2.05E+02
2.06E+02
2.08E+02
2.14E+02
2.18E+02
2.19E+02
2.18E+02
2.20E+02
2.21E+02
2.13E+02
1.99E+02
1.99E+02
2.00E+02
2.08E+02
2.20E+02
2.16E+02
2.18E+02
2.12E+02
2.05E+02
2.07E+02
2.09E+02
2.09E+02
2.20E+02
2.21E+02
2.12E+02
2.18E+02
2.12E+02
2.00E+02
2.05E+02
2.08E+02
1.96E+02
2.26E+02
2.27E+02
2.22E+02
2.10E+02
2.13E+02
2.10E+02
2.19E+02
2.06E+02
2.04E+02
1.99E+02
2.09E+02
2.22E+02
2.30E+02
2.23E+02
2.22E+02
2.17E+02
2.31E+02
2.08E+02
2.02E+02
2.00E+02
2.27E+02
2.29E+02
2.20E+02
2.54E+02
2.55E+02
2.23E+02
2.02E+02
1.84E+02
2.19E+02
1.87E+02
1.92E+02
2.12E+02
2.50E+02
2.86E+02
2.74E+02
1.77E+02
2.27E+02
2.21E+02
1.99E+02
2.72E+02
3.02E+02
1.78E+02
1.51E+02
2.30E+02
2.24E+02
2.39E+02
2.75E+02
2.47E+02
1.94E+02
1.44E+02
1.77E+02
1.91E+02
2.04E+02
2.35E+02
2.50E+02
2.27E+02
2.11E+02
1.95E+02
1.90E+02
1.77E+02
1.90E+02
2.47E+02
2.72E+02
2.85E+02
2.02E+02
1.80E+02
1.92E+02
1.80E+02
2.26E+02
2.26E+02
1.91E+02
1.73E+02
2.15E+02
2.39E+02
2.27E+02
1.81E+02
2.04E+02
2.15E+02
1.92E+02
2.10E+02
2.38E+02
2.28E+02
1.79E+02
1.79E+02
2.00E+02
1.94E+02
1.96E+02
1.97E+02
2.06E+02
2.05E+02
2.02E+02
2.16E+02
2.09E+02
2.11E+02
2.10E+02
2.09E+02
1.97E+02
1.95E+02
1.97E+02
2.02E+02
2.05E+02
2.18E+02
2.15E+02
2.13E+02
2.09E+02
2.08E+02
2.03E+02
1.97E+02
2.02E+02
2.05E+02
2.13E+02
2.15E+02
2.18E+02
2.13E+02
2.10E+02
2.08E+02
2.04E+02
1.99E+02
2.06E+02
2.09E+02
2.10E+02
2.15E+02
2.13E+02
2.08E+02
2.14E+02
1.99E+02
1.95E+02
2.05E+02
2.12E+02
2.12E+02
2.12E+02
2.19E+02
2.15E+02
2.14E+02
2.09E+02
1.92E+02
1.91E+02
2.15E+02
2.08E+02
2.18E+02
2.15E+02
2.17E+02
2.15E+02
2.15E+02
2.12E+02
2.09E+02
2.00E+02
2.01E+02
2.06E+02
2.13E+02
2.21E+02
2.17E+02
2.15E+02
2.12E+02
2.08E+02
2.12E+02
2.08E+02
2.10E+02
2.11E+02
2.10E+02
2.14E+02
2.16E+02
2.20E+02
2.15E+02
2.12E+02
2.06E+02
2.05E+02
2.04E+02
2.05E+02
2.08E+02
2.16E+02
2.11E+02
2.08E+02
2.10E+02
2.17E+02
2.18E+02
2.10E+02
2.05E+02
2.10E+02
2.14E+02
2.20E+02
2.10E+02
2.08E+02
2.18E+02
2.17E+02
2.07E+02
2.05E+02
2.04E+02
2.11E+02
2.13E+02
2.17E+02
2.17E+02
2.17E+02
2.15E+02
2.08E+02
2.08E+02
2.07E+02
2.09E+02
2.14E+02
2.14E+02
2.14E+02
2.18E+02
2.16E+02
2.09E+02
2.10E+02
2.06E+02
2.06E+02
2.08E+02
2.08E+02
2.07E+02
2.16E+02
2.17E+02
2.16E+02
2.07E+02
2.14E+02
2.11E+02
2.15E+02
2.03E+02
1.94E+02
1.97E+02
2.24E+02
2.40E+02
2.18E+02
2.18E+02
2.12E+02
2.09E+02
2.11E+02
2.08E+02
2.13E+02
2.16E+02
2.15E+02
2.14E+02
2.20E+02
2.11E+02
2.08E+02
2.06E+02
2.06E+02
2.04E+02
2.14E+02
2.14E+02
2.19E+02
2.19E+02
2.14E+02
2.14E+02
2.07E+02
2.07E+02
2.08E+02
2.11E+02
2.08E+02
2.15E+02
2.15E+02
2.18E+02
2.16E+02
2.09E+02
2.08E+02
2.01E+02
2.07E+02
2.06E+02
2.11E+02
2.13E+02
2.17E+02
2.11E+02
2.27E+02
2.14E+02
2.01E+02
2.04E+02
2.08E+02
2.14E+02
2.21E+02
2.19E+02
2.18E+02
2.13E+02
2.08E+02
2.04E+02
2.17E+02
2.16E+02
2.18E+02
2.18E+02
2.13E+02
2.15E+02
2.22E+02
2.21E+02
2.06E+02
2.03E+02
2.00E+02
2.04E+02
2.03E+02
2.04E+02
2.17E+02
2.19E+02
2.14E+02
2.18E+02
2.20E+02
2.19E+02
2.20E+02
2.04E+02
2.01E+02
2.11E+02
2.24E+02
2.07E+02
2.27E+02
2.18E+02
2.12E+02
2.04E+02
2.17E+02
2.10E+02
2.20E+02
2.06E+02
2.19E+02
2.28E+02
2.22E+02
2.05E+02
2.19E+02
2.17E+02
2.12E+02
1.98E+02
2.14E+02
2.24E+02
2.62E+02
2.47E+02
2.36E+02
2.52E+02
2.31E+02
1.88E+02
1.90E+02
2.09E+02
2.24E+02
2.45E+02
2.60E+02
2.29E+02
2.74E+02
2.20E+02
1.79E+02
1.90E+02
1.67E+02
1.76E+02
2.22E+02
2.40E+02
2.47E+02
2.34E+02
2.12E+02
1.66E+02
1.89E+02
2.27E+02
2.42E+02
1.57E+02
1.95E+02
2.65E+02
2.13E+02
1.75E+02
2.24E+02
2.35E+02
1.91E+02
1.88E+02
2.03E+02
1.87E+02
1.93E+02
2.13E+02
2.29E+02
2.09E+02
2.00E+02
2.32E+02
2.50E+02
1.88E+02
2.02E+02
2.05E+02
1.90E+02
2.04E+02
2.25E+02
2.24E+02
2.20E+02
2.17E+02
1.89E+02
2.25E+02
1.81E+02
1.92E+02
2.13E+02
1.80E+02
2.13E+02
2.07E+02
2.12E+02
2.00E+02
2.07E+02
1.89E+02
1.94E+02
1.94E+02
2.00E+02
2.11E+02
2.13E+02
2.07E+02
2.02E+02
2.01E+02
1.98E+02
1.95E+02
1.99E+02
2.00E+02
2.06E+02
2.09E+02
2.10E+02
2.12E+02
2.06E+02
2.05E+02
1.99E+02
2.02E+02
2.04E+02
2.04E+02
2.08E+02
2.10E+02
2.15E+02
2.09E+02
2.07E+02
2.06E+02
2.03E+02
2.01E+02
2.05E+02
2.06E+02
2.09E+02
2.16E+02
2.13E+02
2.11E+02
2.09E+02
2.08E+02
2.04E+02
2.02E+02
2.02E+02
2.05E+02
2.08E+02
2.14E+02
2.18E+02
2.14E+02
2.07E+02
2.00E+02
2.02E+02
2.03E+02
2.02E+02
2.12E+02
2.22E+02
2.18E+02
2.16E+02
2.11E+02
2.05E+02
2.12E+02
2.06E+02
2.06E+02
2.02E+02
2.10E+02
2.14E+02
2.26E+02
2.22E+02
2.13E+02
2.11E+02
2.08E+02
2.05E+02
2.05E+02
2.13E+02
2.15E+02
2.18E+02
2.06E+02
2.09E+02
2.28E+02
2.15E+02
2.15E+02
2.10E+02
2.06E+02
2.07E+02
2.16E+02
2.24E+02
2.20E+02
2.18E+02
2.16E+02
2.10E+02
2.11E+02
2.08E+02
2.08E+02
2.09E+02
2.10E+02
2.18E+02
2.19E+02
2.14E+02
2.14E+02
2.11E+02
2.08E+02
2.06E+02
2.08E+02
2.09E+02
2.13E+02
2.15E+02
2.15E+02
2.16E+02
2.19E+02
2.12E+02
2.11E+02
2.06E+02
2.06E+02
2.10E+02
2.16E+02
2.17E+02
2.16E+02
2.11E+02
2.08E+02
1.94E+02
2.11E+02
2.11E+02
2.12E+02
2.07E+02
2.15E+02
2.21E+02
2.28E+02
2.19E+02
2.13E+02
2.10E+02
2.06E+02
2.06E+02
2.11E+02
2.15E+02
2.16E+02
2.17E+02
2.16E+02
2.14E+02
2.12E+02
2.05E+02
2.10E+02
2.07E+02
2.06E+02
2.19E+02
2.21E+02
2.19E+02
2.17E+02
2.16E+02
2.12E+02
2.08E+02
2.10E+02
2.01E+02
2.08E+02
2.14E+02
2.16E+02
2.20E+02
2.21E+02
2.14E+02
2.12E+02
2.09E+02
2.04E+02
2.05E+02
2.08E+02
2.13E+02
2.17E+02
2.18E+02
2.19E+02
2.16E+02
2.10E+02
2.04E+02
2.03E+02
2.02E+02
2.15E+02
2.18E+02
2.19E+02
2.21E+02
2.21E+02
2.16E+02
2.05E+02
2.02E+02
2.10E+02
2.09E+02
2.06E+02
2.14E+02
2.19E+02
2.25E+02
2.22E+02
2.12E+02
2.09E+02
2.06E+02
2.05E+02
2.05E+02
2.12E+02
2.16E+02
2.18E+02
2.12E+02
2.10E+02
2.13E+02
2.10E+02
2.10E+02
2.11E+02
2.13E+02
2.15E+02
2.10E+02
2.19E+02
2.26E+02
2.23E+02
2.14E+02
2.01E+02
2.03E+02
2.02E+02
2.07E+02
2.08E+02
2.11E+02
2.20E+02
2.26E+02
2.30E+02
2.11E+02
2.02E+02
1.98E+02
2.04E+02
2.06E+02
2.11E+02
2.14E+02
2.24E+02
2.27E+02
2.19E+02
2.22E+02
2.21E+02
2.10E+02
1.93E+02
2.10E+02
2.30E+02
2.24E+02
2.24E+02
2.25E+02
2.00E+02
2.04E+02
2.09E+02
1.99E+02
2.00E+02
2.27E+02
2.25E+02
2.18E+02
2.22E+02
2.30E+02
2.20E+02
2.53E+02
2.37E+02
1.95E+02
1.90E+02
1.93E+02
2.27E+02
2.42E+02
2.78E+02
2.31E+02
1.90E+02
2.43E+02
2.95E+02
2.93E+02
2.17E+02
1.64E+02
1.45E+02
2.07E+02
2.27E+02
2.03E+02
1.70E+02
2.34E+02
2.30E+02
2.25E+02
2.52E+02
2.13E+02
2.10E+02
2.43E+02
2.18E+02
1.89E+02
1.90E+02
1.95E+02
2.23E+02
1.87E+02
1.98E+02
2.27E+02
2.05E+02
2.01E+02
2.11E+02
2.40E+02
2.24E+02
1.83E+02
2.13E+02
2.01E+02
2.25E+02
2.69E+02
2.16E+02
1.79E+02
1.95E+02
2.09E+02
2.08E+02
2.18E+02
1.98E+02
2.28E+02
1.93E+02
1.87E+02
1.80E+02
2.05E+02
2.06E+02
2.10E+02
2.16E+02
1.93E+02
2.21E+02
2.56E+02
1.94E+02
1.87E+02
1.92E+02
2.08E+02
2.02E+02
2.10E+02
1.98E+02
1.98E+02
2.02E+02
1.93E+02
1.96E+02
2.01E+02
2.07E+02
2.11E+02
2.08E+02
2.07E+02
2.14E+02
1.96E+02
1.95E+02
2.00E+02
2.04E+02
2.05E+02
2.07E+02
2.06E+02
2.11E+02
2.03E+02
2.00E+02
2.00E+02
2.04E+02
2.00E+02
2.03E+02
2.09E+02
2.15E+02
2.18E+02
2.13E+02
2.09E+02
2.09E+02
2.03E+02
1.97E+02
2.03E+02
2.04E+02
2.08E+02
2.13E+02
2.20E+02
2.10E+02
1.97E+02
2.01E+02
2.13E+02
2.04E+02
2.02E+02
2.00E+02
2.03E+02
2.08E+02
2.07E+02
2.11E+02
2.24E+02
2.13E+02
2.00E+02
1.99E+02
2.09E+02
2.11E+02
2.09E+02
2.22E+02
2.17E+02
2.15E+02
2.08E+02
2.07E+02
2.04E+02
2.04E+02
2.08E+02
2.08E+02
2.11E+02
2.16E+02
2.14E+02
2.14E+02
2.13E+02
2.07E+02
2.10E+02
2.08E+02
2.06E+02
2.12E+02
2.17E+02
2.21E+02
2.19E+02
2.17E+02
2.10E+02
2.11E+02
2.05E+02
2.05E+02
2.09E+02
2.16E+02
2.14E+02
2.15E+02
2.18E+02
2.13E+02
2.13E+02
2.10E+02
2.02E+02
1.97E+02
2.05E+02
2.17E+02
2.21E+02
2.21E+02
2.17E+02
2.17E+02
2.15E+02
2.09E+02
2.06E+02
2.06E+02
2.10E+02
2.14E+02
2.17E+02
2.17E+02
2.13E+02
2.13E+02
2.15E+02
2.06E+02
2.05E+02
2.07E+02
2.07E+02
2.12E+02
2.17E+02
2.16E+02
2.04E+02
2.08E+02
2.14E+02
2.19E+02
2.14E+02
2.11E+02
2.11E+02
2.14E+02
2.27E+02
2.23E+02
2.19E+02
2.14E+02
2.12E+02
2.10E+02
2.03E+02
2.07E+02
2.17E+02
2.21E+02
2.19E+02
2.21E+02
2.14E+02
2.14E+02
2.11E+02
2.07E+02
2.11E+02
2.11E+02
2.12E+02
2.15E+02
2.21E+02
2.18E+02
2.18E+02
2.17E+02
2.14E+02
2.05E+02
2.05E+02
2.03E+02
2.13E+02
2.09E+02
2.16E+02
2.25E+02
2.18E+02
2.14E+02
2.12E+02
2.07E+02
2.06E+02
2.14E+02
2.19E+02
2.17E+02
2.21E+02
2.15E+02
2.06E+02
2.21E+02
2.14E+02
2.11E+02
2.08E+02
2.13E+02
2.17E+02
2.20E+02
2.23E+02
2.16E+02
2.18E+02
2.08E+02
2.09E+02
2.05E+02
2.10E+02
2.10E+02
2.14E+02
2.19E+02
2.19E+02
2.17E+02
2.12E+02
2.08E+02
2.08E+02
2.08E+02
2.09E+02
2.16E+02
2.21E+02
2.14E+02
2.15E+02
2.09E+02
2.22E+02
2.13E+02
2.06E+02
2.12E+02
2.09E+02
2.12E+02
2.18E+02
2.19E+02
2.19E+02
2.16E+02
2.17E+02
2.14E+02
2.09E+02
2.06E+02
2.12E+02
2.17E+02
2.17E+02
2.16E+02
2.16E+02
2.16E+02
2.11E+02
2.08E+02
2.10E+02
2.09E+02
2.08E+02
2.13E+02
2.17E+02
2.20E+02
2.23E+02
2.24E+02
2.23E+02
2.09E+02
2.05E+02
2.03E+02
2.07E+02
2.18E+02
2.28E+02
2.15E+02
2.13E+02
2.11E+02
2.14E+02
2.07E+02
2.13E+02
2.16E+02
2.05E+02
2.04E+02
2.16E+02
2.20E+02
2.22E+02
2.26E+02
2.15E+02
2.10E+02
2.02E+02
1.99E+02
2.28E+02
2.21E+02
2.17E+02
2.13E+02
2.08E+02
2.17E+02
2.15E+02
2.02E+02
2.07E+02
2.01E+02
2.18E+02
2.13E+02
2.11E+02
2.21E+02
2.22E+02
2.25E+02
2.17E+02
2.07E+02
2.07E+02
2.09E+02
2.24E+02
2.34E+02
2.34E+02
2.46E+02
2.10E+02
2.28E+02
2.33E+02
1.92E+02
2.03E+02
1.90E+02
2.27E+02
2.86E+02
2.67E+02
1.99E+02
2.18E+02
2.05E+02
2.48E+02
1.94E+02
2.07E+02
2.10E+02
2.02E+02
2.02E+02
2.14E+02
2.55E+02
2.37E+02
1.95E+02
2.08E+02
2.31E+02
2.40E+02
2.41E+02
1.85E+02
2.05E+02
2.08E+02
2.08E+02
2.20E+02
2.42E+02
2.01E+02
1.79E+02
1.81E+02
2.19E+02
2.28E+02
2.01E+02
2.10E+02
2.05E+02
2.07E+02
2.31E+02
1.96E+02
2.01E+02
1.98E+02
2.24E+02
1.94E+02
2.04E+02
2.24E+02
2.13E+02
2.08E+02
1.90E+02
1.95E+02
1.96E+02
2.02E+02
2.04E+02
2.05E+02
2.08E+02
2.13E+02
2.21E+02
1.95E+02
2.06E+02
2.03E+02
1.92E+02
1.95E+02
2.03E+02
2.07E+02
2.09E+02
2.14E+02
2.12E+02
2.09E+02
2.04E+02
1.98E+02
1.97E+02
2.01E+02
2.04E+02
2.05E+02
2.11E+02
2.14E+02
2.15E+02
2.09E+02
1.99E+02
1.98E+02
2.04E+02
2.01E+02
2.04E+02
2.12E+02
2.17E+02
2.17E+02
2.11E+02
2.14E+02
2.06E+02
1.94E+02
1.84E+02
2.08E+02
2.16E+02
2.16E+02
2.13E+02
2.08E+02
2.15E+02
2.13E+02
2.05E+02
1.96E+02
2.05E+02
2.05E+02
2.07E+02
2.19E+02
2.15E+02
2.19E+02
2.13E+02
2.11E+02
2.04E+02
2.02E+02
2.00E+02
2.12E+02
2.10E+02
2.15E+02
2.16E+02
2.14E+02
2.05E+02
1.99E+02
2.05E+02
2.05E+02
1.97E+02
1.96E+02
2.07E+02
2.20E+02
2.26E+02
2.20E+02
2.16E+02
2.20E+02
2.11E+02
2.04E+02
2.06E+02
2.10E+02
2.11E+02
2.15E+02
2.16E+02
2.15E+02
2.15E+02
2.10E+02
2.04E+02
2.05E+02
2.07E+02
2.12E+02
2.14E+02
2.17E+02
2.19E+02
2.20E+02
2.15E+02
2.08E+02
2.04E+02
2.08E+02
2.04E+02
2.05E+02
2.09E+02
2.14E+02
2.22E+02
2.21E+02
2.15E+02
2.05E+02
2.10E+02
2.07E+02
2.10E+02
2.11E+02
2.12E+02
2.19E+02
2.25E+02
2.17E+02
2.13E+02
2.07E+02
2.06E+02
2.05E+02
2.07E+02
2.14E+02
2.17E+02
2.17E+02
2.19E+02
2.17E+02
2.09E+02
2.05E+02
2.06E+02
2.08E+02
2.06E+02
2.09E+02
2.17E+02
2.12E+02
2.10E+02
2.21E+02
2.18E+02
2.10E+02
2.14E+02
2.01E+02
2.05E+02
2.15E+02
2.23E+02
2.18E+02
2.22E+02
2.15E+02
2.14E+02
2.06E+02
2.03E+02
2.06E+02
2.08E+02
2.10E+02
2.21E+02
2.17E+02
2.19E+02
2.15E+02
2.06E+02
2.08E+02
2.08E+02
2.03E+02
2.08E+02
2.10E+02
2.11E+02
2.15E+02
2.18E+02
2.25E+02
2.06E+02
2.02E+02
2.14E+02
2.12E+02
2.16E+02
2.14E+02
2.14E+02
2.18E+02
2.21E+02
2.13E+02
2.11E+02
2.04E+02
2.06E+02
2.10E+02
2.12E+02
2.15E+02
2.22E+02
2.22E+02
2.18E+02
2.14E+02
2.13E+02
2.08E+02
2.04E+02
2.10E+02
2.14E+02
2.13E+02
2.18E+02
2.19E+02
2.15E+02
2.13E+02
2.07E+02
2.11E+02
2.07E+02
2.06E+02
2.12E+02
2.17E+02
2.21E+02
2.18E+02
2.17E+02
2.11E+02
2.15E+02
2.13E+02
2.08E+02
2.11E+02
2.13E+02
2.09E+02
2.20E+02
2.32E+02
2.24E+02
2.13E+02
2.14E+02
1.99E+02
2.08E+02
2.11E+02
2.15E+02
2.26E+02
2.22E+02
2.11E+02
2.10E+02
2.11E+02
2.14E+02
2.07E+02
2.04E+02
2.17E+02
2.21E+02
2.15E+02
2.12E+02
2.14E+02
2.19E+02
2.18E+02
2.00E+02
2.04E+02
2.01E+02
2.12E+02
2.22E+02
2.23E+02
2.15E+02
2.16E+02
2.20E+02
2.13E+02
2.04E+02
2.06E+02
2.14E+02
2.15E+02
2.16E+02
2.16E+02
2.13E+02
2.21E+02
2.00E+02
2.06E+02
2.10E+02
2.06E+02
2.16E+02
2.25E+02
2.30E+02
2.16E+02
2.05E+02
2.21E+02
2.29E+02
2.15E+02
1.98E+02
1.92E+02
2.16E+02
2.17E+02
2.27E+02
2.31E+02
1.98E+02
2.05E+02
2.10E+02
2.19E+02
2.05E+02
2.04E+02
2.07E+02
2.13E+02
2.27E+02
2.27E+02
2.19E+02
2.13E+02
2.03E+02
2.06E+02
2.10E+02
2.18E+02
2.22E+02
2.18E+02
2.11E+02
2.31E+02
2.19E+02
1.94E+02
1.95E+02
2.18E+02
2.15E+02
2.01E+02
2.36E+02
2.42E+02
2.37E+02
2.37E+02
2.26E+02
2.16E+02
1.88E+02
2.08E+02
1.90E+02
2.25E+02
2.45E+02
2.28E+02
1.90E+02
1.90E+02
2.53E+02
2.74E+02
2.30E+02
2.17E+02
2.23E+02
1.78E+02
1.70E+02
2.33E+02
2.79E+02
2.55E+02
1.92E+02
1.50E+02
2.00E+02
2.13E+02
2.22E+02
2.05E+02
2.13E+02
1.84E+02
2.15E+02
2.24E+02
1.88E+02
2.03E+02
1.91E+02
2.17E+02
2.27E+02
2.21E+02
2.14E+02
2.22E+02
2.14E+02
1.84E+02
1.91E+02
2.28E+02
1.98E+02
2.08E+02
1.96E+02
2.11E+02
2.14E+02
1.92E+02
2.05E+02
2.41E+02
2.27E+02
1.93E+02
1.92E+02
1.98E+02
2.01E+02
1.94E+02
2.01E+02
1.98E+02
2.14E+02
2.24E+02
2.06E+02
1.98E+02
1.98E+02
2.16E+02
1.89E+02
2.11E+02
2.23E+02
2.16E+02
2.01E+02
2.00E+02
2.17E+02
2.06E+02
2.01E+02
2.06E+02
2.00E+02
2.05E+02
2.10E+02
2.14E+02
2.11E+02
2.13E+02
2.17E+02
2.22E+02
1.91E+02
2.01E+02
2.03E+02
2.00E+02
2.06E+02
2.12E+02
2.11E+02
2.05E+02
2.04E+02
2.09E+02
2.08E+02
2.02E+02
2.01E+02
1.99E+02
2.17E+02
2.15E+02
2.20E+02
2.17E+02
2.08E+02
2.00E+02
2.09E+02
2.04E+02
2.07E+02
2.07E+02
2.13E+02
2.17E+02
2.19E+02
2.14E+02
2.12E+02
2.10E+02
2.03E+02
2.00E+02
2.05E+02
2.08E+02
2.14E+02
2.16E+02
2.16E+02
2.13E+02
2.10E+02
2.07E+02
2.06E+02
2.06E+02
2.06E+02
2.09E+02
2.13E+02
2.14E+02
2.17E+02
2.13E+02
2.12E+02
2.04E+02
2.04E+02
2.10E+02
2.10E+02
2.08E+02
2.18E+02
2.20E+02
2.10E+02
2.16E+02
2.08E+02
1.95E+02
2.08E+02
2.12E+02
2.08E+02
2.16E+02
2.20E+02
2.17E+02
2.14E+02
2.13E+02
2.11E+02
2.08E+02
2.08E+02
2.09E+02
2.13E+02
2.16E+02
2.19E+02
2.16E+02
2.17E+02
2.15E+02
2.09E+02
2.06E+02
2.07E+02
2.07E+02
2.10E+02
2.13E+02
2.16E+02
2.21E+02
2.17E+02
2.12E+02
2.13E+02
2.03E+02
2.00E+02
2.01E+02
2.06E+02
2.10E+02
2.15E+02
2.16E+02
2.08E+02
2.08E+02
2.13E+02
2.14E+02
2.11E+02
2.17E+02
2.16E+02
2.19E+02
2.18E+02
2.14E+02
2.10E+02
2.26E+02
2.10E+02
2.09E+02
2.12E+02
2.11E+02
2.12E+02
2.15E+02
2.13E+02
2.15E+02
2.17E+02
2.20E+02
2.12E+02
2.07E+02
2.08E+02
2.11E+02
2.13E+02
2.15E+02
2.18E+02
2.17E+02
2.17E+02
2.12E+02
2.10E+02
2.05E+02
2.07E+02
2.05E+02
2.13E+02
2.18E+02
2.20E+02
2.16E+02
2.12E+02
2.12E+02
2.14E+02
2.06E+02
2.07E+02
2.13E+02
2.15E+02
2.10E+02
2.06E+02
2.05E+02
2.23E+02
2.25E+02
2.09E+02
2.09E+02
2.14E+02
2.09E+02
2.08E+02
2.22E+02
2.23E+02
2.20E+02
2.14E+02
2.12E+02
2.17E+02
2.12E+02
2.11E+02
2.16E+02
2.13E+02
2.18E+02
2.20E+02
2.19E+02
2.14E+02
2.09E+02
2.04E+02
2.06E+02
2.08E+02
2.07E+02
2.17E+02
2.14E+02
2.23E+02
2.24E+02
2.11E+02
2.07E+02
2.13E+02
2.09E+02
2.17E+02
2.12E+02
2.18E+02
2.17E+02
2.16E+02
2.16E+02
2.16E+02
2.06E+02
2.05E+02
1.96E+02
2.07E+02
2.24E+02
2.19E+02
2.26E+02
2.18E+02
2.14E+02
2.15E+02
2.22E+02
2.08E+02
2.02E+02
2.01E+02
2.15E+02
2.20E+02
2.21E+02
2.17E+02
2.15E+02
2.15E+02
2.13E+02
2.08E+02
2.08E+02
2.10E+02
2.15E+02
2.19E+02
2.18E+02
2.17E+02
2.16E+02
2.05E+02
2.06E+02
2.11E+02
2.13E+02
2.17E+02
2.16E+02
2.17E+02
2.26E+02
2.14E+02
2.11E+02
2.13E+02
2.16E+02
2.21E+02
2.06E+02
2.06E+02
2.04E+02
2.15E+02
2.18E+02
2.20E+02
2.22E+02
2.11E+02
2.06E+02
2.07E+02
2.09E+02
2.20E+02
2.12E+02
2.12E+02
2.18E+02
2.19E+02
2.27E+02
2.10E+02
1.98E+02
2.07E+02
2.14E+02
2.11E+02
2.07E+02
2.24E+02
2.22E+02
2.27E+02
2.24E+02
2.24E+02
2.18E+02
1.93E+02
2.11E+02
2.24E+02
2.02E+02
2.10E+02
2.16E+02
2.28E+02
2.17E+02
1.96E+02
2.05E+02
2.01E+02
2.12E+02
2.11E+02
2.07E+02
2.21E+02
2.43E+02
2.15E+02
2.34E+02
2.28E+02
2.10E+02
2.07E+02
2.12E+02
1.96E+02
1.82E+02
2.22E+02
2.36E+02
2.26E+02
2.23E+02
2.19E+02
1.86E+02
1.97E+02
2.11E+02
2.30E+02
2.07E+02
2.11E+02
2.46E+02
2.19E+02
1.96E+02
1.90E+02
2.31E+02
2.50E+02
2.21E+02
2.04E+02
2.43E+02
2.20E+02
2.11E+02
2.41E+02
1.76E+02
2.11E+02
2.11E+02
1.95E+02
2.03E+02
2.61E+02
2.36E+02
1.95E+02
2.09E+02
2.03E+02
2.10E+02
2.08E+02
2.36E+02
2.27E+02
1.99E+02
1.83E+02
2.06E+02
2.05E+02
2.15E+02
2.02E+02
2.25E+02
2.01E+02
1.86E+02
2.04E+02
2.29E+02
2.21E+02
2.63E+02
2.32E+02
1.88E+02
1.97E+02
2.07E+02
1.88E+02
2.02E+02
2.00E+02
1.92E+02
2.47E+02
1.98E+02
2.15E+02
2.14E+02
2.11E+02
2.19E+02
2.53E+02
2.04E+02
1.76E+02
1.89E+02
2.01E+02
2.09E+02
2.05E+02
2.09E+02
2.08E+02
2.11E+02
1.98E+02
1.95E+02
2.03E+02
2.11E+02
2.08E+02
2.12E+02
2.10E+02
2.10E+02
2.09E+02
2.05E+02
2.05E+02
2.03E+02
2.06E+02
2.00E+02
2.13E+02
2.09E+02
2.10E+02
2.10E+02
2.07E+02
1.99E+02
1.98E+02
2.04E+02
2.09E+02
2.07E+02
2.07E+02
2.07E+02
2.19E+02
2.15E+02
2.10E+02
2.08E+02
2.04E+02
1.94E+02
1.93E+02
2.10E+02
2.18E+02
2.14E+02
2.18E+02
2.18E+02
2.08E+02
2.05E+02
2.03E+02
2.06E+02
2.08E+02
2.08E+02
2.11E+02
2.17E+02
2.16E+02
2.12E+02
2.10E+02
2.05E+02
2.03E+02
2.03E+02
2.10E+02
2.11E+02
2.14E+02
2.16E+02
2.18E+02
2.11E+02
2.06E+02
2.02E+02
2.08E+02
2.07E+02
2.14E+02
2.14E+02
2.16E+02
2.19E+02
2.16E+02
2.03E+02
2.06E+02
2.01E+02
2.02E+02
1.97E+02
2.21E+02
2.26E+02
2.24E+02
2.18E+02
2.19E+02
2.15E+02
2.09E+02
2.02E+02
2.01E+02
2.11E+02
2.11E+02
2.15E+02
2.20E+02
2.21E+02
2.11E+02
2.07E+02
2.09E+02
2.11E+02
2.13E+02
2.11E+02
2.12E+02
2.17E+02
2.20E+02
2.13E+02
2.08E+02
2.20E+02
2.08E+02
2.04E+02
2.05E+02
2.08E+02
2.09E+02
2.07E+02
2.20E+02
2.19E+02
2.18E+02
2.16E+02
2.11E+02
2.01E+02
2.15E+02
2.15E+02
2.19E+02
2.17E+02
2.21E+02
2.17E+02
2.17E+02
2.10E+02
2.04E+02
2.04E+02
2.09E+02
2.10E+02
2.15E+02
2.13E+02
2.11E+02
2.24E+02
2.14E+02
2.06E+02
2.09E+02
2.13E+02
2.11E+02
2.11E+02
2.15E+02
2.19E+02
2.18E+02
2.12E+02
2.10E+02
2.09E+02
2.09E+02
2.07E+02
2.08E+02
2.18E+02
2.13E+02
2.19E+02
2.19E+02
2.16E+02
2.08E+02
2.01E+02
2.06E+02
2.09E+02
2.13E+02
2.14E+02
2.15E+02
2.14E+02
2.13E+02
2.19E+02
2.14E+02
2.17E+02
2.13E+02
2.11E+02
2.07E+02
2.13E+02
2.14E+02
2.17E+02
2.17E+02
2.19E+02
2.11E+02
2.07E+02
2.14E+02
2.10E+02
2.06E+02
2.13E+02
2.16E+02
2.20E+02
2.14E+02
2.11E+02
2.09E+02
2.12E+02
2.03E+02
2.01E+02
2.11E+02
2.18E+02
2.19E+02
2.25E+02
2.20E+02
2.17E+02
2.14E+02
2.09E+02
2.09E+02
2.08E+02
2.07E+02
2.09E+02
2.16E+02
2.19E+02
2.14E+02
2.11E+02
2.15E+02
2.11E+02
2.02E+02
2.10E+02
2.11E+02
2.17E+02
2.22E+02
2.20E+02
2.15E+02
2.11E+02
2.09E+02
2.14E+02
2.08E+02
2.12E+02
2.16E+02
2.16E+02
2.13E+02
2.18E+02
2.19E+02
2.18E+02
2.13E+02
2.08E+02
2.06E+02
2.06E+02
2.13E+02
2.15E+02
2.19E+02
2.26E+02
2.17E+02
2.12E+02
2.05E+02
2.07E+02
2.11E+02
2.06E+02
2.07E+02
2.22E+02
2.34E+02
2.20E+02
2.10E+02
2.16E+02
2.08E+02
2.06E+02
1.93E+02
2.08E+02
2.12E+02
2.25E+02
2.26E+02
2.22E+02
2.22E+02
2.16E+02
2.08E+02
2.00E+02
1.98E+02
2.11E+02
2.15E+02
2.20E+02
2.15E+02
2.15E+02
2.15E+02
2.11E+02
2.11E+02
2.03E+02
2.09E+02
2.10E+02
2.11E+02
2.21E+02
2.25E+02
2.13E+02
2.08E+02
2.10E+02
2.06E+02
2.15E+02
2.20E+02
2.21E+02
2.07E+02
2.20E+02
2.08E+02
2.09E+02
2.19E+02
2.16E+02
1.96E+02
1.95E+02
2.07E+02
2.10E+02
2.18E+02
2.27E+02
2.17E+02
2.10E+02
2.15E+02
2.33E+02
2.22E+02
1.91E+02
1.96E+02
2.01E+02
2.07E+02
2.24E+02
2.31E+02
2.10E+02
2.03E+02
2.10E+02
2.06E+02
1.95E+02
2.02E+02
2.11E+02
2.13E+02
2.30E+02
2.24E+02
2.26E+02
2.14E+02
2.08E+02
2.04E+02
2.12E+02
2.28E+02
2.01E+02
2.00E+02
2.23E+02
2.38E+02
2.39E+02
2.12E+02
2.02E+02
1.93E+02
2.06E+02
2.17E+02
2.36E+02
2.41E+02
2.40E+02
1.88E+02
2.12E+02
1.94E+02
2.20E+02
2.06E+02
2.02E+02
1.97E+02
2.06E+02
2.40E+02
2.19E+02
1.85E+02
2.31E+02
2.63E+02
2.62E+02
2.34E+02
1.86E+02
1.93E+02
2.14E+02
2.40E+02
1.79E+02
2.05E+02
2.56E+02
2.68E+02
1.76E+02
1.72E+02
2.15E+02
2.15E+02
2.11E+02
2.11E+02
2.06E+02
2.16E+02
2.36E+02
2.54E+02
2.18E+02
1.90E+02
2.07E+02
1.65E+02
1.93E+02
2.08E+02
2.21E+02
1.97E+02
